 Ag Density=10.5
 Wavelength (nm), Delta, Beta
  0.0419999994  2.13872431E-06  1.31398693E-07
  0.0449918658  2.41748239E-06  1.68339497E-07
  0.0481968634  2.5934994E-06  2.15159417E-07
  0.0516301654  3.13421515E-06  4.42761028E-08
  0.0553080365  3.64412676E-06  5.7216635E-08
  0.0592478998  4.21091227E-06  7.39876356E-08
  0.0634684265  4.85557803E-06  9.57254258E-08
  0.0679895952  5.59323462E-06  1.23901515E-07
  0.0728328377  6.4392907E-06  1.60427049E-07
  0.0780210719  7.41079293E-06  2.07770626E-07
  0.0835788995  8.52696212E-06  2.69128947E-07
  0.0895326436  9.80966615E-06  3.48624241E-07
  0.0959105045  1.12838707E-05  4.51591973E-07
  0.102742679  1.29780219E-05  5.8490383E-07
  0.110061556  1.49244634E-05  7.57423948E-07
  0.117901787  1.71599004E-05  9.80528853E-07
  0.126300499  1.97258414E-05  1.26887062E-06
  0.135297522  2.26687152E-05  1.64115158E-06
  0.144935444  2.6040314E-05  2.12127497E-06
  0.155259907  2.9897612E-05  2.73988803E-06
  0.166319832  3.43023348E-05  3.53583096E-06
  0.178167626  3.93198206E-05  4.5581719E-06
  0.190859392  4.50158586E-05  5.86928763E-06
  0.204455256  5.14547646E-05  7.54716712E-06
  0.219019607  5.86895439E-05  9.68957102E-06
  0.234621465  6.67472559E-05  1.2417514E-05
  0.251334727  7.56074805E-05  1.58806652E-05
  0.269238532  8.51489531E-05  2.02614192E-05
  0.288417757  9.50151152E-05  2.57792126E-05
  0.30896318  0.00010413643  3.26963418E-05
  0.330972165  0.00011004004  3.61242674E-05
  0.354548961  0.000110075343  3.35604309E-05
  0.379805207  0.000130532353  1.30693261E-05
  0.40686062  0.000164350597  1.65873007E-05
  0.435843319  0.000195410612  2.10739454E-05
  0.466890633  0.000229025143  2.67955693E-05
  0.500149548  0.000266646093  3.40885381E-05
  0.535777688  0.000309244875  4.3377182E-05
  0.573943794  0.000357678044  5.51922603E-05
  0.614828646  0.000412771129  7.01925674E-05
  0.65862596  0.000475545763  8.9155903E-05
  0.70554316  0.00054681371  0.000113261864
  0.755802512  0.000627474277  0.000143503275
  0.809642017  0.000718561467  0.000181709576
  0.867316902  0.000820164278  0.000228676741
  0.929100156  0.000935399497  0.000286440365
  0.995284557  0.00106485898  0.000358813821
  1.06618357  0.0012089588  0.000449627871
  1.14213312  0.00136747363  0.000563419948
  1.22349298  0.00153798505  0.000705362123
  1.31064856  0.00172018865  0.000877742015
  1.40401244  0.00191687269  0.00110465114
  1.50402725  0.00208318746  0.0013554988
  1.6111666  0.00223727874  0.00166729966
  1.72593796  0.00236137002  0.0020179709
  1.84888518  0.00245995447  0.00235785358
  1.98059034  0.00254316279  0.00275495928
  2.12167764  0.00254939985  0.00321668829
  2.27281523  0.00241672923  0.00362204621
  2.43471909  0.00223714602  0.0040084105
  2.6081562  0.0018509276  0.00433823885
  2.79394817  0.00129662536  0.00438053627
  2.99297523  0.000456147885  0.00369587657
  3.20617962  0.000986390049  0.00193949824
  3.4345715  0.00261566066  0.00150099373
  3.67923331  0.0039772056  0.00159256964
  3.94132304  0.00515621854  0.00192098378
  4.22208357  0.00626566261  0.0022689905
  4.52284336  0.00741047459  0.00262466469
  4.84502745  0.00866227318  0.00293953903
  5.19016314  0.0100667672  0.00325811235
  5.55988407  0.0116610639  0.00350700552
  5.95594215  0.0135655943  0.00375818205
  6.38021374  0.0157540254  0.00401426433
  6.83470774  0.018267395  0.00411931658
  7.32157803  0.0213656854  0.00386479986
  7.84313059  0.0258156061  0.00327193039
  8.40183544  0.0317315385  0.00314650359
  9.00033951  0.0392537229  0.00348806148
  9.64147854  0.0489675291  0.00473539531
  10.328289  0.0613691695  0.00749949878
  11.0640249  0.0781224743  0.0143198771
  11.85217  0.0964497924  0.0289728008
  12.6964579  0.110983051  0.0564082414
  13.6008911  0.109499738  0.0815507099
  14.5697498  0.107611202  0.101891153
  15.607626  0.10632275  0.121798351
  16.7194328  0.10209357  0.142677039
  17.9104424  0.0957629755  0.161792442
  19.1862907  0.0908417776  0.179378733
  20.5530262  0.0860245526  0.198889449
  22.0171204  0.0793832615  0.219522506
  23.5855103  0.0726334304  0.240706548
  25.2656212  0.0648522973  0.26393497
  27.0654182  0.0550616905  0.28887859
  28.9934216  0.0435158089  0.315699756
  31.0587654  0.0288888365  0.344501883
  33.2712402  0.0113234837  0.375184774
  35.6413155 -0.0115969609  0.408527583
  38.1802177 -0.0401547067  0.438270718
  40.8999863 -0.070870094  0.46765241