 Mo Density=10.22
 Wavelength (nm), Delta, Beta
  0.0419999994  2.1336175E-06  9.92234348E-08
  0.0449929684  2.43966178E-06  1.28097653E-07
  0.0481992178  2.78596735E-06  1.65133542E-07
  0.0516339466  3.17307467E-06  2.12523858E-07
  0.0553134382  3.59630076E-06  2.72994015E-07
  0.0592551343  4.01957232E-06  3.49898414E-07
  0.0634777248  4.49485151E-06  6.71412579E-08
  0.0680012181  5.32273634E-06  8.6990795E-08
  0.0728470609  6.17514115E-06  1.1271014E-07
  0.0780382305  7.13410418E-06  1.46037152E-07
  0.0835993215  8.22758466E-06  1.89215825E-07
  0.0895567015  9.47997432E-06  2.45150744E-07
  0.0959386081  1.09171278E-05  3.17603877E-07
  0.102775298  1.2567948E-05  4.11437327E-07
  0.110099196  1.4465104E-05  5.32930983E-07
  0.117944986  1.66457849E-05  6.90197055E-07
  0.126349866  1.91523959E-05  8.93680578E-07
  0.135353714  2.20330967E-05  1.15687567E-06
  0.144999161  2.53426169E-05  1.49583332E-06
  0.155331969  2.91450178E-05  1.93346159E-06
  0.166401103  3.35101249E-05  2.49915615E-06
  0.17825903  3.85162348E-05  3.23043491E-06
  0.190961972  4.4248176E-05  4.17572437E-06
  0.20457013  5.07937002E-05  5.38838367E-06
  0.21914804  5.82706525E-05  6.94056735E-06
  0.23476477  6.67825589E-05  8.93991E-06
  0.251494378  7.64241413E-05  1.15152598E-05
  0.269416124  8.72775054E-05  1.47835417E-05
  0.288615048  9.94687507E-05  1.89544189E-05
  0.309182078  0.00011298123  2.43021568E-05
  0.331214756  0.00012769684  3.10357245E-05
  0.35481748  0.000143481942  3.95665775E-05
  0.380102158  0.000159470088  5.03605297E-05
  0.407188654  0.000174000321  6.37756748E-05
  0.436205417  0.000178786897  7.10340319E-05
  0.467289895  0.000173534834  8.97458158E-05
  0.50058949  0.000196172245  2.41088965E-05
  0.536262095  0.000262085348  3.0639836E-05
  0.574476719  0.000315467594  3.89401539E-05
  0.61541456  0.000371851755  4.94887572E-05
  0.659269691  0.000434199173  6.28012058E-05
  0.706249952  0.000504384399  7.95943124E-05
  0.756578147  0.000583847461  0.000100877471
  0.810492754  0.000673760485  0.000127815118
  0.868249416  0.000775758876  0.000161191158
  0.930121839  0.000891577103  0.000203255317
  0.996403396  0.00102213584  0.000256028725
  1.0674082  0.00116975757  0.000321283471
  1.14347291  0.00133592647  0.00040317676
  1.22495806  0.00152026187  0.000505935575
  1.31225002  0.00173354044  0.000628674927
  1.40576231  0.00195637252  0.000790971622
  1.50593865  0.00219141413  0.000990841538
  1.61325347  0.00246617314  0.00123325654
  1.72821581  0.00273266272  0.00150915037
  1.85137033  0.00298554497  0.00185339444
  1.98330104  0.00326773548  0.00223304122
  2.12463331  0.00352507853  0.00258669932
  2.27603722  0.00385294668  0.00310227601
  2.43823004  0.00380309764  0.00381695386
  2.61198092  0.00420153001  0.00426951982
  2.79811382  0.00418419018  0.00528682489
  2.99751067  0.00468607061  0.00615985971
  3.21111655  0.00332655548  0.00625616964
  3.43994427  0.00373453554  0.00668782368
  3.68507862  0.00353044178  0.00737853069
  3.94768143  0.0028055727  0.00807153899
  4.22899771  0.00215112627  0.00762238214
  4.5303607  0.00108039204  0.00740320841
  4.85319948  0.000966766151  0.00394904474
  5.19904375  0.00366589869  0.00254889135
  5.56953335  0.00641922932  0.00223739748
  5.96642494  0.00878795609  0.00247346447
  6.3915987  0.0111027975  0.00274580764
  6.84707165  0.0135770608  0.00291183451
  7.33500147  0.0163817704  0.00325614377
  7.85770226  0.0195271131  0.00357660209
  8.41765118  0.0229785517  0.00379409944
  9.01750183  0.0271953009  0.00390834315
  9.66009903  0.0322460756  0.00419916585
  10.3484888  0.0380422398  0.00448416453
  11.0859337  0.0450669006  0.00454143854
  11.8759308  0.0536771603  0.00480383821
  12.7222223  0.0645640641  0.00524335541
  13.6288214  0.0782191604  0.00668103853
  14.6000271  0.0955138281  0.00955641642
  15.6404419  0.117316559  0.0159010869
  16.7549973  0.141481236  0.0282890871
  17.9489765  0.171516508  0.047528211
  19.2280407  0.195205435  0.0897527486
  20.5982533  0.214587271  0.125370547
  22.0661087  0.215644822  0.182765409
  23.6385632  0.19359386  0.233064145
  25.3230743  0.165641606  0.257370353
  27.1276264  0.131557912  0.285811156
  29.06077  0.063753292  0.287645936
  31.1316738  0.0234704185  0.199320942
  33.3501511  0.0956713855  0.132142082
  35.7267227  0.173394009  0.113574363
  38.2726479  0.25930053  0.111946322
  41.  0.365174353  0.138162792